* FRD data written by MATAA on 20-Dec-2018 09:12:28
* Impedance, FaitalPRO 12PR320 in Monkey Coffin prototype box 20181219
10.000000	NA	NA
10.046189	NA	NA
10.092591	6.202970	22.214831
10.139207	6.211361	22.313172
10.186039	6.219790	22.411966
10.233087	6.228258	22.511217
10.280352	6.235884	22.614876
10.327836	6.242778	22.722445
10.375539	6.249705	22.830511
10.423462	6.256664	22.939075
10.471607	6.266428	23.050122
10.519974	6.276587	23.161931
10.568565	6.286792	23.274256
10.617380	6.296108	23.380731
10.666420	6.303293	23.472914
10.715687	6.310511	23.565523
10.765181	6.317763	23.658560
10.814904	6.324797	23.772962
10.864857	6.331790	23.894053
10.915040	6.338816	24.015704
10.965456	6.346717	24.138492
11.016104	6.356620	24.263187
11.066986	6.366569	24.388457
11.118103	6.376563	24.514307
11.169456	6.389111	24.623865
11.221046	6.402048	24.731699
11.272875	6.415044	24.840031
11.324943	6.425594	24.945047
11.377251	6.433862	25.047004
11.429802	6.442170	25.149432
11.482594	6.451448	25.254890
11.535631	6.464372	25.370713
11.588913	6.477355	25.487071
11.642441	6.490399	25.603967
11.696216	6.498948	25.715270
11.750239	6.507260	25.826714
11.804512	6.515610	25.938673
11.859035	6.525743	26.064873
11.913811	6.536577	26.196799
11.968839	6.547461	26.329336
12.024122	6.557441	26.473650
12.079660	6.566715	26.627430
12.135454	6.576032	26.781920
12.191506	6.588994	26.906602
12.247817	6.606661	26.992514
12.304389	6.624410	27.078823
12.361221	6.639861	27.190129
12.418316	6.651130	27.345908
12.475675	6.662451	27.502406
12.533298	6.674430	27.652236
12.591188	6.687726	27.787323
12.649345	6.701084	27.923033
12.707771	6.713653	28.057323
12.766467	6.724557	28.188087
12.825433	6.735512	28.319455
12.884672	6.749152	28.451677
12.944185	6.767190	28.584919
13.003973	6.785310	28.718776
13.064036	6.802190	28.862209
13.124378	6.817624	29.016599
13.184998	6.833129	29.171703
13.245897	6.849286	29.316114
13.307079	6.865919	29.453298
13.368542	6.882630	29.591115
13.430290	6.899827	29.732271
13.492323	6.917237	29.874959
13.554642	6.934727	30.018307
13.617249	6.953580	30.166750
13.680146	6.972580	30.316089
13.743333	6.991770	30.464906
13.806811	7.011483	30.609242
13.870583	7.031287	30.754245
13.934650	7.050717	30.896022
13.999012	7.069690	31.033886
14.063672	7.088750	31.172386
14.128630	7.109073	31.314153
14.193889	7.129851	31.457382
14.259449	7.150729	31.603903
14.325311	7.171733	31.774196
14.391478	7.192835	31.945276
14.457951	7.215860	32.102294
14.524730	7.241038	32.243387
14.591818	7.266332	32.385133
14.659216	7.289336	32.546463
14.726925	7.312096	32.711293
14.794947	7.335329	32.876263
14.863283	7.359510	33.040577
14.931935	7.383802	33.205649
15.000903	7.410216	33.368441
15.070191	7.437363	33.531057
15.139798	7.464713	33.699771
15.209727	7.492408	33.884651
15.279979	7.520232	34.070385
15.350555	7.550820	34.227933
15.421457	7.582301	34.377914
15.492687	7.613250	34.537346
15.564246	7.642939	34.715645
15.636135	7.672765	34.894768
15.708357	7.704457	35.078534
15.780912	7.736486	35.263566
15.853802	7.769692	35.448297
15.927028	7.804068	35.632741
16.000593	7.838799	35.816820
16.074498	7.874985	35.993745
16.148744	7.911337	36.171487
16.223333	7.948767	36.341288
16.298267	7.986618	36.509484
16.373547	8.025522	36.689908
16.449174	8.065618	36.884363
16.525151	8.106220	37.075630
16.601478	8.148594	37.247627
16.678159	8.191165	37.420418
16.755193	8.235440	37.628365
16.832583	8.280094	37.841246
16.910331	8.324157	38.030195
16.988437	8.367989	38.206441
17.066905	8.414525	38.395478
17.145735	8.464706	38.601823
17.224929	8.515454	38.798398
17.304489	8.567635	38.957558
17.384416	8.620090	39.117942
17.464713	8.673628	39.291452
17.545380	8.727413	39.465762
17.626420	8.788838	39.680105
17.707834	8.851567	39.900858
17.789624	8.914186	40.088250
17.871792	8.976953	40.264455
17.954340	9.042974	40.454243
18.037269	9.111092	40.652626
18.120581	9.180926	40.837252
18.204278	9.252342	41.009535
18.288361	9.326533	41.190988
18.372833	9.404055	41.383520
18.457694	9.483969	41.572575
18.542948	9.567394	41.755761
18.628596	9.652278	41.942460
18.714639	9.739500	42.134856
18.801080	9.828249	42.329962
18.887919	9.919619	42.529555
18.975160	10.013068	42.709495
19.062804	10.110215	42.849752
19.150853	10.209533	42.993199
19.239309	10.312440	43.141929
19.328173	10.423434	43.295968
19.417447	10.546791	43.457911
19.507134	10.671731	43.634412
19.597235	10.798512	43.828959
19.687752	10.927259	43.968936
19.778687	11.057898	44.057529
19.870043	11.198696	44.166916
19.961820	11.346407	44.290169
20.054021	11.503538	44.410310
20.146648	11.664982	44.529495
20.239703	11.833908	44.643993
20.333188	12.004992	44.757951
20.427104	12.192186	44.804409
20.521454	12.381994	44.853696
20.616241	12.581712	44.938703
20.711464	12.790466	44.990480
20.807128	13.020118	44.959899
20.903234	13.254120	44.920466
20.999783	13.492863	44.871156
21.096779	13.749297	44.817236
21.194222	14.014993	44.760934
21.292115	14.310410	44.654981
21.390461	14.610289	44.541208
21.489261	14.907393	44.419061
21.588517	15.223478	44.231803
21.688232	15.572621	43.927854
21.788407	15.947599	43.611284
21.889045	16.339482	43.286225
21.990148	16.761225	42.873138
22.091718	17.194203	42.440113
22.193757	17.656808	41.971516
22.296267	18.155901	41.356323
22.399251	18.696306	40.574281
22.502710	19.222429	39.777758
22.606647	19.757230	38.949752
22.711065	20.388992	37.905234
22.815964	21.040307	36.785735
22.921348	21.715719	35.572122
23.027219	22.412116	34.189548
23.133579	23.110258	32.681889
23.240430	23.777401	30.750008
23.347775	24.544448	28.749425
23.455615	25.401773	26.686053
23.563954	26.067979	24.446396
23.672793	26.670880	22.027585
23.782135	27.170739	19.260769
23.891981	27.814796	16.358521
24.002336	28.455564	13.322389
24.113199	28.741325	9.838619
24.224575	28.988066	6.331212
24.336466	29.195527	2.802943
24.448873	28.933373	-0.704963
24.561799	28.662231	-4.246162
24.675247	28.381333	-7.822404
24.789219	27.756429	-11.195179
24.903717	27.052336	-14.553231
25.018744	26.267807	-17.902909
25.134303	25.336522	-20.675406
25.250395	24.381056	-23.215572
25.367024	23.412990	-25.496649
25.484191	22.488709	-27.585272
25.601899	21.540326	-29.579972
25.720151	20.556028	-31.473289
25.838949	19.711634	-32.905519
25.958296	18.853034	-34.199362
26.078194	17.982747	-35.350739
26.198646	17.254647	-36.096480
26.319655	16.541293	-36.880316
26.441222	15.842011	-37.619438
26.563351	15.166209	-38.032693
26.686043	14.565889	-38.364348
26.809303	14.012037	-38.553239
26.933132	13.501353	-38.515636
27.057533	13.008239	-38.558986
27.182508	12.533670	-38.466139
27.308061	12.084423	-38.259459
27.434193	11.693419	-38.094641
27.560908	11.339181	-37.782463
27.688209	10.991138	-37.447016
27.816097	10.638914	-37.137149
27.944576	10.333060	-36.762305
28.073649	10.036786	-36.197742
28.203318	9.752705	-35.539402
28.333585	9.483846	-34.866074
28.464455	9.237560	-34.396487
28.595929	9.001963	-33.743927
28.728010	8.793222	-33.024053
28.860701	8.623281	-32.316863
28.994005	8.469401	-31.362226
29.127924	8.302815	-30.810209
29.262463	8.119706	-30.198717
29.397622	7.936489	-29.358394
29.533406	7.824220	-28.508466
29.669818	7.663712	-27.445858
29.806859	7.532293	-26.631204
29.944533	7.418769	-25.900875
30.082843	7.299952	-25.006497
30.221792	7.199452	-24.064140
30.361383	7.092346	-23.318530
30.501618	7.004004	-22.338284
30.642502	6.924285	-21.281314
30.784035	6.839893	-20.418218
30.926223	6.779445	-19.620370
31.069068	6.693528	-18.803572
31.212572	6.630335	-18.012676
31.356739	6.572151	-17.265816
31.501572	6.506986	-16.490887
31.647074	6.441825	-15.560241
31.793247	6.391876	-14.629377
31.940097	6.339985	-13.783625
32.087624	6.288846	-12.884117
32.235833	6.247220	-11.982786
32.384726	6.210446	-11.146634
32.534307	6.171322	-10.351321
32.684579	6.142231	-9.422824
32.835545	6.115367	-8.606550
32.987208	6.085771	-7.785646
33.139572	6.061883	-6.977224
33.292640	6.042441	-6.194374
33.446414	6.023758	-5.394558
33.600899	6.004936	-4.593196
33.756098	5.987648	-3.831466
33.912013	5.971283	-3.016823
34.068648	5.956493	-2.232753
34.226007	5.946442	-1.450366
34.384093	5.937196	-0.676544
34.542909	5.930989	0.066516
34.702458	5.923893	0.818678
34.862745	5.917910	1.566008
35.023771	5.914056	2.291151
35.185542	5.912093	2.998432
35.348059	5.911818	3.712979
35.511328	5.912714	4.438639
35.675350	5.914316	5.141360
35.840130	5.916330	5.828794
36.005671	5.919999	6.502963
36.171977	5.925578	7.172912
36.339051	5.933254	7.842911
36.506897	5.940743	8.518905
36.675518	5.948306	9.170711
36.844917	5.957273	9.809385
37.015099	5.968517	10.444003
37.186068	5.982178	11.067211
37.357825	5.993363	11.735178
37.530377	6.004524	12.372027
37.703725	6.019008	12.979757
37.877874	6.036781	13.559954
38.052827	6.050203	14.170139
38.228588	6.065374	14.706887
38.405161	6.087337	15.380348
38.582550	6.095542	15.975803
38.760758	6.122595	16.514927
38.939789	6.139259	17.147175
39.119647	6.164862	17.679639
39.300336	6.179329	18.306639
39.481859	6.207276	18.896481
39.664221	6.225556	19.360582
39.847425	6.243106	19.958201
40.031476	6.283604	20.495005
40.216376	6.297939	20.925622
40.402131	6.334752	21.571370
40.588743	6.369631	22.031444
40.776218	6.380002	22.575914
40.964558	6.403933	23.249140
41.153768	6.448708	23.755283
41.343852	6.476123	24.183599
41.534814	6.498541	24.637867
41.726659	6.524223	25.269778
41.919389	6.567407	25.883729
42.113009	6.609439	26.259983
42.307524	6.643975	26.667764
42.502937	6.680786	27.159798
42.699253	6.710841	27.717127
42.896476	6.739011	28.212366
43.094609	6.782763	28.713965
43.293658	6.833760	29.164399
43.493626	6.887382	29.721902
43.694518	6.935179	30.229026
43.896337	6.969442	30.697578
44.099089	7.009761	31.145573
44.302777	7.049894	31.545257
44.507407	7.101872	31.914708
44.712981	7.157490	32.349006
44.919504	7.207423	32.746995
45.126982	7.245868	33.140791
45.335418	7.282854	33.594368
45.544817	7.309291	34.128327
45.755183	7.365386	34.569161
45.966520	7.411791	35.041917
46.178834	7.463749	35.500642
46.392128	7.519208	35.950813
46.606408	7.590766	36.475024
46.821677	7.646415	36.881908
47.037941	7.711023	37.346023
47.255203	7.782493	37.845763
47.473469	7.842607	38.358236
47.692743	7.912562	38.820808
47.913030	7.980594	39.283423
48.134334	8.045159	39.706202
48.356661	8.123135	40.067461
48.580014	8.194373	40.339126
48.804399	8.267097	40.649119
49.029821	8.332207	41.150720
49.256284	8.395152	41.571889
49.483792	8.479922	42.042328
49.712352	8.566074	42.467999
49.941967	8.650879	43.029671
50.172643	8.740491	43.495795
50.404384	8.818727	43.964293
50.637196	8.924494	44.382308
50.871083	9.037713	44.685114
51.106050	9.166577	45.053648
51.342102	9.286603	45.505505
51.579245	9.394474	45.816853
51.817483	9.495034	45.963373
52.056822	9.575171	46.471563
52.297266	9.684125	46.987975
52.538821	9.813401	47.326778
52.781491	9.949774	47.721187
53.025282	10.069068	48.266981
53.270199	10.240901	48.511183
53.516248	10.401692	48.870306
53.763433	10.596134	49.280992
54.011760	10.809629	49.604882
54.261233	11.001817	49.918764
54.511859	11.224874	49.953447
54.763643	11.488118	49.719025
55.016589	11.755948	49.534054
55.270704	11.960845	48.503172
55.525993	12.050003	47.548662
55.782460	11.879411	46.604260
56.040113	11.711371	46.954722
56.298955	11.714293	48.668021
56.558993	11.882320	49.950139
56.820232	12.113468	50.731588
57.082678	12.416346	51.235446
57.346335	12.728132	51.454060
57.611211	13.162221	51.432174
57.877310	13.445833	51.201607
58.144638	13.640499	50.337004
58.413201	13.690106	50.157340
58.683005	13.801678	49.503838
58.954054	13.768860	49.309295
59.226356	13.693550	48.724114
59.499915	13.535455	50.134123
59.774738	13.788224	51.358846
60.050830	14.011785	52.585665
60.328197	14.357579	53.507450
60.606846	14.636177	54.154075
60.886781	15.012803	54.600380
61.168010	15.268013	54.560157
61.450537	15.714360	55.186619
61.734370	16.000143	55.561498
62.019513	16.334833	55.977108
62.305974	16.735005	56.249873
62.593757	17.268406	56.468720
62.882870	17.718512	57.142336
63.173318	18.184360	57.462989
63.465108	18.719245	57.559315
63.758245	19.266987	57.741864
64.052737	19.974756	57.569051
64.348589	20.547809	57.982719
64.645807	21.114685	57.751224
64.944398	21.883889	57.462292
65.244368	22.592673	57.632034
65.545724	23.430046	57.261799
65.848471	24.234129	56.885592
66.152617	24.942882	56.344181
66.458168	25.788441	55.905778
66.765130	26.570350	55.624704
67.073510	27.321143	55.998913
67.383314	28.444914	55.901726
67.694550	29.836723	55.243087
68.007222	31.111351	54.763951
68.321339	32.243676	54.836404
68.636907	33.757186	54.404340
68.953932	35.626980	53.598192
69.272422	38.071006	52.755669
69.592383	40.272167	52.074329
69.913822	42.350248	50.563520
70.236745	45.124430	48.680930
70.561160	48.340872	46.656587
70.887073	51.805460	44.638019
71.214492	54.847444	41.787699
71.543423	58.413271	38.155831
71.873873	63.545213	34.308648
72.205849	67.691108	30.622486
72.539359	70.760361	25.281680
72.874410	74.206574	18.912968
73.211008	77.975752	12.294472
73.549160	80.188781	6.123136
73.888875	79.404111	-0.588359
74.230158	77.435443	-8.000555
74.573018	76.047963	-14.848689
74.917462	73.423620	-20.871344
75.263496	67.672255	-24.939079
75.611129	63.805931	-30.079089
75.960368	60.173350	-33.724208
76.311219	56.934743	-36.449720
76.663691	53.934293	-37.616977
77.017791	51.982814	-39.957148
77.373527	50.036957	-42.972160
77.730906	47.760181	-44.639251
78.089935	45.641167	-47.125093
78.450623	43.560313	-49.821124
78.812977	41.559312	-51.841947
79.177004	39.474685	-53.191709
79.542713	37.255325	-54.771688
79.910111	35.531043	-56.128173
80.279206	33.914222	-56.987680
80.650006	32.241630	-57.579548
81.022518	30.751715	-58.310144
81.396751	29.646440	-58.873919
81.772713	28.534634	-59.174082
82.150411	27.329585	-59.618234
82.529853	26.325640	-60.267992
82.911049	25.410294	-60.525493
83.294005	24.457747	-60.688198
83.678729	23.574993	-61.011000
84.065231	22.769539	-61.074560
84.453518	22.052536	-61.010664
84.843598	21.283501	-60.899525
85.235480	20.638856	-60.885852
85.629173	20.021126	-60.636624
86.024683	19.407833	-60.345174
86.422021	18.873636	-59.904615
86.821193	18.482891	-59.582298
87.222210	18.088675	-59.295954
87.625078	17.727763	-58.895658
88.029808	17.450895	-58.875967
88.436407	17.109067	-58.763482
88.844883	16.768107	-58.830695
89.255247	16.422480	-58.905095
89.667506	16.069937	-58.805903
90.081669	15.716287	-58.732684
90.497745	15.385389	-58.644391
90.915743	15.055392	-58.394911
91.335672	14.733229	-58.189430
91.757540	14.434493	-57.917016
92.181357	14.156630	-57.573199
92.607131	13.878500	-57.219875
93.034872	13.634543	-56.840007
93.464588	13.414574	-56.410802
93.896290	13.203467	-55.996811
94.329985	13.022967	-55.685764
94.765684	12.861908	-55.387159
95.203395	12.672052	-55.158366
95.643128	12.476439	-54.948775
96.084891	12.291044	-54.637382
96.528696	12.109974	-54.345481
96.974550	11.942366	-54.034014
97.422463	11.774747	-53.665187
97.872446	11.627077	-53.305167
98.324506	11.484367	-52.928277
98.778655	11.336285	-52.581148
99.234902	11.211953	-52.285974
99.693255	11.102311	-52.025434
100.153726	11.013255	-51.400811
100.616324	10.846523	-51.384332
101.081058	10.737724	-51.171762
101.547939	10.593591	-50.940512
102.016977	10.475581	-50.631414
102.488180	10.342503	-50.349868
102.961561	10.218351	-49.914171
103.437127	10.129822	-49.545821
103.914891	10.017973	-49.114958
104.394861	9.921839	-48.805351
104.877048	9.836181	-48.418211
105.361462	9.743359	-48.117150
105.848113	9.652416	-47.896771
106.337013	9.566786	-47.528463
106.828170	9.471137	-47.178823
107.321597	9.396493	-46.853672
107.817302	9.307445	-46.475137
108.315297	9.237805	-46.173948
108.815592	9.164173	-45.859597
109.318197	9.082347	-45.554581
109.823125	9.027998	-45.182920
110.330384	8.955119	-44.933835
110.839987	8.888824	-44.671394
111.351943	8.812877	-44.417517
111.866264	8.733955	-44.142237
112.382960	8.659291	-43.798779
112.902043	8.587804	-43.413961
113.423524	8.525111	-43.047368
113.947413	8.463362	-42.690281
114.473722	8.404496	-42.274964
115.002462	8.347810	-41.976682
115.533644	8.292931	-41.595195
116.067280	8.244655	-41.249242
116.603380	8.199258	-40.916564
117.141957	8.149573	-40.619153
117.683021	8.107561	-40.274463
118.226585	8.052336	-40.023137
118.772659	8.012252	-39.730753
119.321255	7.967797	-39.396395
119.872385	7.928610	-39.118192
120.426061	7.872287	-38.927436
120.982294	7.814037	-38.656789
121.541096	7.768866	-38.338487
122.102479	7.711833	-37.938124
122.666456	7.658720	-37.612375
123.233037	7.612945	-37.207352
123.802235	7.567163	-36.784631
124.374062	7.524965	-36.349075
124.948531	7.486726	-35.943272
125.525653	7.457865	-35.454635
126.105440	7.440363	-35.004414
126.687906	7.423990	-34.682386
127.273061	7.399646	-34.353577
127.860920	7.370971	-33.987932
128.451494	7.346909	-33.570890
129.044795	7.336093	-33.091042
129.640837	7.346488	-32.655311
130.239633	7.377695	-32.441726
130.841193	7.393602	-32.512081
131.445533	7.378298	-32.704586
132.052663	7.332545	-32.800833
132.662598	7.272479	-32.717707
133.275350	7.222381	-32.508766
133.890933	7.172542	-32.310715
134.509359	7.128032	-32.070476
135.130641	7.084444	-31.776399
135.754792	7.042423	-31.440991
136.381827	7.006539	-31.146807
137.011758	6.973230	-30.813684
137.644598	6.939527	-30.459398
138.280362	6.906826	-30.093374
138.919062	6.879036	-29.734492
139.560712	6.856444	-29.348521
140.205325	6.836512	-28.980531
140.852916	6.823213	-28.637268
141.503499	6.809485	-28.344403
142.157086	6.795239	-28.043674
142.813692	6.777908	-27.812605
143.473331	6.760094	-27.553995
144.136016	6.729869	-27.304396
144.801763	6.705883	-26.925113
145.470584	6.689930	-26.574448
146.142495	6.676243	-26.215934
146.817509	6.666706	-25.850574
147.495641	6.670037	-25.488475
148.176905	6.678957	-25.191632
148.861316	6.688933	-25.152877
149.548888	6.677740	-25.118507
150.239636	6.654937	-25.020242
150.933574	6.629181	-24.929736
151.630718	6.597554	-24.748628
152.331082	6.568102	-24.493853
153.034680	6.541837	-24.229211
153.741528	6.520879	-23.935620
154.451642	6.496799	-23.656764
155.165035	6.478953	-23.400028
155.881723	6.459363	-23.087602
156.601721	6.440872	-22.814992
157.325045	6.426483	-22.509566
158.051710	6.410654	-22.200650
158.781732	6.394076	-21.932351
159.515125	6.380267	-21.624232
160.251905	6.362202	-21.309462
160.992089	6.349233	-20.958561
161.735692	6.342971	-20.572722
162.482729	6.338899	-20.207217
163.233217	6.342142	-19.920155
163.987171	6.346293	-19.682734
164.744607	6.347946	-19.492982
165.505542	6.347096	-19.329188
166.269992	6.338689	-19.164629
167.037973	6.328180	-19.072947
167.809500	6.317860	-18.934815
168.584592	6.290325	-18.712858
169.363263	6.268526	-18.494965
170.145531	6.254774	-18.216123
170.931412	6.236689	-17.923503
171.720924	6.228093	-17.595352
172.514081	6.214933	-17.290684
173.310903	6.206395	-17.018388
174.111404	6.197596	-16.651845
174.915603	6.194029	-16.357132
175.723517	6.193021	-16.095599
176.535162	6.188705	-15.805312
177.350556	6.187644	-15.506635
178.169717	6.189982	-15.223382
178.992661	6.193750	-14.951679
179.819406	6.204089	-14.747834
180.649969	6.211194	-14.590500
181.484369	6.215263	-14.548566
182.322623	6.204144	-14.506871
183.164749	6.181546	-14.426653
184.010764	6.162554	-14.186922
184.860687	6.147342	-13.929399
185.714536	6.135989	-13.693058
186.572328	6.122055	-13.399273
187.434083	6.112061	-13.115830
188.299818	6.105902	-12.811593
189.169551	6.097072	-12.513538
190.043302	6.096114	-12.193376
190.921089	6.097066	-11.883727
191.802930	6.103895	-11.625589
192.688844	6.110671	-11.423653
193.578850	6.110880	-11.305092
194.472967	6.098992	-11.150158
195.371213	6.087453	-10.928934
196.273609	6.080484	-10.635053
197.180172	6.075216	-10.335356
198.090923	6.075865	-10.065556
199.005881	6.075710	-9.796232
199.925065	6.078188	-9.559777
200.848494	6.074540	-9.311959
201.776188	6.075144	-9.042657
202.708167	6.078058	-8.727597
203.644451	6.089561	-8.480238
204.585060	6.101617	-8.290666
205.530013	6.108386	-8.167297
206.479331	6.108587	-8.055894
207.433034	6.097932	-7.886566
208.391141	6.094149	-7.639010
209.353674	6.093868	-7.371372
210.320653	6.103621	-7.118663
211.292098	6.114728	-6.968588
